flux bestfit-meanmu bestfit-std flat-meanmu flat-std steep-meanmu steep-std
   1.0359457e-03   4.7302127e+00   4.7473063e+00   3.0760473e+00   2.2557146e+00   8.2395521e+00   7.4583297e+00
   1.1104212e-03   4.7302177e+00   4.7473110e+00   3.0760487e+00   2.2557168e+00   8.2395623e+00   7.4583335e+00
   1.1902508e-03   4.7302231e+00   4.7473160e+00   3.0760503e+00   2.2557193e+00   8.2395731e+00   7.4583376e+00
   1.2758195e-03   4.7302288e+00   4.7473214e+00   3.0760519e+00   2.2557219e+00   8.2395848e+00   7.4583419e+00
   1.3675398e-03   4.7302350e+00   4.7473272e+00   3.0760537e+00   2.2557247e+00   8.2395972e+00   7.4583466e+00
   1.4658541e-03   4.7302416e+00   4.7473333e+00   3.0760556e+00   2.2557277e+00   8.2396106e+00   7.4583516e+00
   1.5712363e-03   4.7302487e+00   4.7473400e+00   3.0760576e+00   2.2557310e+00   8.2396250e+00   7.4583570e+00
   1.6841945e-03   4.7302563e+00   4.7473471e+00   3.0760597e+00   2.2557344e+00   8.2396403e+00   7.4583628e+00
   1.8052735e-03   4.7302644e+00   4.7473547e+00   3.0760621e+00   2.2557381e+00   8.2396568e+00   7.4583690e+00
   1.9350570e-03   4.7302732e+00   4.7473629e+00   3.0760646e+00   2.2557421e+00   8.2396745e+00   7.4583756e+00
   2.0741708e-03   4.7302825e+00   4.7473717e+00   3.0760672e+00   2.2557464e+00   8.2396934e+00   7.4583827e+00
   2.2232857e-03   4.7302925e+00   4.7473810e+00   3.0760701e+00   2.2557509e+00   8.2397137e+00   7.4583903e+00
   2.3831206e-03   4.7303033e+00   4.7473911e+00   3.0760731e+00   2.2557558e+00   8.2397355e+00   7.4583985e+00
   2.5544463e-03   4.7303148e+00   4.7474019e+00   3.0760764e+00   2.2557611e+00   8.2397588e+00   7.4584072e+00
   2.7380888e-03   4.7303271e+00   4.7474135e+00   3.0760800e+00   2.2557667e+00   8.2397838e+00   7.4584166e+00
   2.9349336e-03   4.7303404e+00   4.7474259e+00   3.0760837e+00   2.2557727e+00   8.2398105e+00   7.4584267e+00
   3.1459299e-03   4.7303546e+00   4.7474391e+00   3.0760878e+00   2.2557792e+00   8.2398393e+00   7.4584374e+00
   3.3720949e-03   4.7303698e+00   4.7474534e+00   3.0760921e+00   2.2557861e+00   8.2398700e+00   7.4584490e+00
   3.6145193e-03   4.7303860e+00   4.7474686e+00   3.0760968e+00   2.2557935e+00   8.2399030e+00   7.4584614e+00
   3.8743718e-03   4.7304035e+00   4.7474850e+00   3.0761018e+00   2.2558015e+00   8.2399384e+00   7.4584746e+00
   4.1529055e-03   4.7304222e+00   4.7475025e+00   3.0761071e+00   2.2558100e+00   8.2399763e+00   7.4584889e+00
   4.4514634e-03   4.7304423e+00   4.7475213e+00   3.0761128e+00   2.2558192e+00   8.2400169e+00   7.4585041e+00
   4.7714849e-03   4.7304638e+00   4.7475415e+00   3.0761190e+00   2.2558290e+00   8.2400605e+00   7.4585205e+00
   5.1145133e-03   4.7304869e+00   4.7475631e+00   3.0761255e+00   2.2558395e+00   8.2401072e+00   7.4585380e+00
   5.4822024e-03   4.7305116e+00   4.7475862e+00   3.0761326e+00   2.2558507e+00   8.2401572e+00   7.4585568e+00
   5.8763252e-03   4.7305381e+00   4.7476111e+00   3.0761402e+00   2.2558628e+00   8.2402108e+00   7.4585769e+00
   6.2987819e-03   4.7305665e+00   4.7476377e+00   3.0761483e+00   2.2558757e+00   8.2402683e+00   7.4585985e+00
   6.7516097e-03   4.7305969e+00   4.7476662e+00   3.0761569e+00   2.2558896e+00   8.2403300e+00   7.4586216e+00
   7.2369918e-03   4.7306296e+00   4.7476967e+00   3.0761663e+00   2.2559045e+00   8.2403960e+00   7.4586464e+00
   7.7572687e-03   4.7306645e+00   4.7477295e+00   3.0761762e+00   2.2559204e+00   8.2404668e+00   7.4586729e+00
   8.3149490e-03   4.7307020e+00   4.7477646e+00   3.0761869e+00   2.2559375e+00   8.2405427e+00   7.4587014e+00
   8.9127216e-03   4.7307422e+00   4.7478023e+00   3.0761984e+00   2.2559558e+00   8.2406241e+00   7.4587319e+00
   9.5534689e-03   4.7307853e+00   4.7478426e+00   3.0762107e+00   2.2559754e+00   8.2407113e+00   7.4587647e+00
   1.0240280e-02   4.7308315e+00   4.7478859e+00   3.0762239e+00   2.2559964e+00   8.2408047e+00   7.4587997e+00
   1.0976468e-02   4.7308810e+00   4.7479322e+00   3.0762380e+00   2.2560190e+00   8.2409049e+00   7.4588373e+00
   1.1765580e-02   4.7309340e+00   4.7479819e+00   3.0762531e+00   2.2560431e+00   8.2410123e+00   7.4588776e+00
   1.2611424e-02   4.7309909e+00   4.7480352e+00   3.0762694e+00   2.2560690e+00   8.2411274e+00   7.4589208e+00
   1.3518075e-02   4.7310519e+00   4.7480922e+00   3.0762868e+00   2.2560968e+00   8.2412508e+00   7.4589671e+00
   1.4489908e-02   4.7311172e+00   4.7481534e+00   3.0763054e+00   2.2561266e+00   8.2413831e+00   7.4590167e+00
   1.5531606e-02   4.7311872e+00   4.7482190e+00   3.0763254e+00   2.2561585e+00   8.2415249e+00   7.4590699e+00
   1.6648194e-02   4.7312623e+00   4.7482893e+00   3.0763468e+00   2.2561927e+00   8.2416768e+00   7.4591269e+00
   1.7845055e-02   4.7313428e+00   4.7483647e+00   3.0763698e+00   2.2562293e+00   8.2418397e+00   7.4591880e+00
   1.9127959e-02   4.7314291e+00   4.7484455e+00   3.0763944e+00   2.2562686e+00   8.2420143e+00   7.4592534e+00
   2.0503093e-02   4.7315215e+00   4.7485321e+00   3.0764208e+00   2.2563107e+00   8.2422015e+00   7.4593236e+00
   2.1977088e-02   4.7316206e+00   4.7486249e+00   3.0764491e+00   2.2563559e+00   8.2424021e+00   7.4593989e+00
   2.3557050e-02   4.7317269e+00   4.7487244e+00   3.0764794e+00   2.2564042e+00   8.2426171e+00   7.4594795e+00
   2.5250597e-02   4.7318408e+00   4.7488310e+00   3.0765119e+00   2.2564561e+00   8.2428476e+00   7.4595659e+00
   2.7065896e-02   4.7319628e+00   4.7489453e+00   3.0765467e+00   2.2565117e+00   8.2430947e+00   7.4596585e+00
   2.9011699e-02   4.7320937e+00   4.7490678e+00   3.0765841e+00   2.2565713e+00   8.2433595e+00   7.4597578e+00
   3.1097388e-02   4.7322340e+00   4.7491991e+00   3.0766241e+00   2.2566352e+00   8.2436433e+00   7.4598642e+00
   3.3333020e-02   4.7323843e+00   4.7493399e+00   3.0766670e+00   2.2567037e+00   8.2439476e+00   7.4599783e+00
   3.5729375e-02   4.7325455e+00   4.7494908e+00   3.0767130e+00   2.2567771e+00   8.2442738e+00   7.4601005e+00
   3.8298007e-02   4.7327183e+00   4.7496525e+00   3.0767623e+00   2.2568558e+00   8.2446234e+00   7.4602315e+00
   4.1051301e-02   4.7329035e+00   4.7498259e+00   3.0768151e+00   2.2569401e+00   8.2449981e+00   7.4603720e+00
   4.4002533e-02   4.7331020e+00   4.7500117e+00   3.0768718e+00   2.2570305e+00   8.2453998e+00   7.4605225e+00
   4.7165933e-02   4.7333149e+00   4.7502109e+00   3.0769325e+00   2.2571274e+00   8.2458304e+00   7.4606838e+00
   5.0556754e-02   4.7335430e+00   4.7504244e+00   3.0769976e+00   2.2572313e+00   8.2462919e+00   7.4608566e+00
   5.4191346e-02   4.7337875e+00   4.7506532e+00   3.0770674e+00   2.2573426e+00   8.2467866e+00   7.4610419e+00
   5.8087234e-02   4.7340497e+00   4.7508985e+00   3.0771422e+00   2.2574620e+00   8.2473169e+00   7.4612405e+00
   6.2263201e-02   4.7343307e+00   4.7511614e+00   3.0772224e+00   2.2575899e+00   8.2478853e+00   7.4614533e+00
   6.6739385e-02   4.7346319e+00   4.7514433e+00   3.0773084e+00   2.2577271e+00   8.2484946e+00   7.4616813e+00
   7.1537368e-02   4.7349548e+00   4.7517453e+00   3.0774005e+00   2.2578741e+00   8.2491477e+00   7.4619257e+00
   7.6680283e-02   4.7353010e+00   4.7520691e+00   3.0774993e+00   2.2580317e+00   8.2498477e+00   7.4621877e+00
   8.2192930e-02   4.7356721e+00   4.7524162e+00   3.0776052e+00   2.2582006e+00   8.2505981e+00   7.4624684e+00
   8.8101888e-02   4.7360699e+00   4.7527882e+00   3.0777188e+00   2.2583817e+00   8.2514025e+00   7.4627692e+00
   9.4435649e-02   4.7364964e+00   4.7531870e+00   3.0778405e+00   2.2585758e+00   8.2522647e+00   7.4630916e+00
   1.0122475e-01   4.7369535e+00   4.7536144e+00   3.0779710e+00   2.2587839e+00   8.2531889e+00   7.4634371e+00
   1.0850193e-01   4.7374436e+00   4.7540725e+00   3.0781108e+00   2.2590069e+00   8.2541796e+00   7.4638072e+00
   1.1630228e-01   4.7379690e+00   4.7545636e+00   3.0782608e+00   2.2592460e+00   8.2552415e+00   7.4642039e+00
   1.2466341e-01   4.7385323e+00   4.7550900e+00   3.0784215e+00   2.2595024e+00   8.2563798e+00   7.4646290e+00
   1.3362562e-01   4.7391361e+00   4.7556542e+00   3.0785939e+00   2.2597771e+00   8.2575999e+00   7.4650845e+00
   1.4323214e-01   4.7397835e+00   4.7562589e+00   3.0787787e+00   2.2600717e+00   8.2589079e+00   7.4655725e+00
   1.5352929e-01   4.7404775e+00   4.7569071e+00   3.0789767e+00   2.2603874e+00   8.2603099e+00   7.4660955e+00
   1.6456672e-01   4.7412216e+00   4.7576019e+00   3.0791891e+00   2.2607259e+00   8.2618127e+00   7.4666557e+00
   1.7639763e-01   4.7420194e+00   4.7583467e+00   3.0794168e+00   2.2610888e+00   8.2634236e+00   7.4672560e+00
   1.8907909e-01   4.7428746e+00   4.7591449e+00   3.0796610e+00   2.2614778e+00   8.2651504e+00   7.4678992e+00
   2.0267224e-01   4.7437916e+00   4.7600005e+00   3.0799227e+00   2.2618948e+00   8.2670014e+00   7.4685882e+00
   2.1724261e-01   4.7447748e+00   4.7609176e+00   3.0802033e+00   2.2623418e+00   8.2689856e+00   7.4693264e+00
   2.3286047e-01   4.7458289e+00   4.7619006e+00   3.0805043e+00   2.2628211e+00   8.2711125e+00   7.4701171e+00
   2.4960112e-01   4.7469592e+00   4.7629543e+00   3.0808269e+00   2.2633349e+00   8.2733925e+00   7.4709642e+00
   2.6754527e-01   4.7481711e+00   4.7640836e+00   3.0811729e+00   2.2638857e+00   8.2758365e+00   7.4718715e+00
   2.8677945e-01   4.7494705e+00   4.7652941e+00   3.0815438e+00   2.2644762e+00   8.2784563e+00   7.4728433e+00
   3.0739641e-01   4.7508639e+00   4.7665915e+00   3.0819416e+00   2.2651093e+00   8.2812646e+00   7.4738842e+00
   3.2949554e-01   4.7523580e+00   4.7679822e+00   3.0823682e+00   2.2657881e+00   8.2842751e+00   7.4749990e+00
   3.5318341e-01   4.7539602e+00   4.7694728e+00   3.0828257e+00   2.2665158e+00   8.2875021e+00   7.4761928e+00
   3.7857423e-01   4.7556784e+00   4.7710705e+00   3.0833163e+00   2.2672960e+00   8.2909615e+00   7.4774713e+00
   4.0579043e-01   4.7575210e+00   4.7727829e+00   3.0838424e+00   2.2681325e+00   8.2946698e+00   7.4788402e+00
   4.3496324e-01   4.7594970e+00   4.7746183e+00   3.0844067e+00   2.2690294e+00   8.2986450e+00   7.4803059e+00
   4.6623332e-01   4.7616163e+00   4.7765855e+00   3.0850119e+00   2.2699911e+00   8.3029064e+00   7.4818750e+00
   4.9975145e-01   4.7638892e+00   4.7786941e+00   3.0856610e+00   2.2710222e+00   8.3074746e+00   7.4835548e+00
   5.3567924e-01   4.7663272e+00   4.7809540e+00   3.0863573e+00   2.2721278e+00   8.3123717e+00   7.4853529e+00
   5.7418993e-01   4.7689421e+00   4.7833762e+00   3.0871042e+00   2.2733133e+00   8.3176215e+00   7.4872773e+00
   6.1546920e-01   4.7717470e+00   4.7859723e+00   3.0879055e+00   2.2745845e+00   8.3232492e+00   7.4893369e+00
   6.5971609e-01   4.7747559e+00   4.7887548e+00   3.0887650e+00   2.2759476e+00   8.3292823e+00   7.4915407e+00
   7.0714395e-01   4.7779838e+00   4.7917370e+00   3.0896872e+00   2.2774094e+00   8.3357499e+00   7.4938986e+00
   7.5798146e-01   4.7814469e+00   4.7949333e+00   3.0906767e+00   2.2789771e+00   8.3426834e+00   7.4964210e+00
   8.1247375e-01   4.7851624e+00   4.7983589e+00   3.0917385e+00   2.2806582e+00   8.3501164e+00   7.4991190e+00
   8.7088356e-01   4.7891491e+00   4.8020303e+00   3.0928778e+00   2.2824612e+00   8.3580850e+00   7.5020044e+00
   9.3349252e-01   4.7934270e+00   4.8059651e+00   3.0941005e+00   2.2843950e+00   8.3666278e+00   7.5050897e+00
   1.0006025e+00   4.7980178e+00   4.8101821e+00   3.0954129e+00   2.2864690e+00   8.3757863e+00   7.5083880e+00
   1.0725372e+00   4.8029448e+00   4.8147015e+00   3.0968215e+00   2.2886936e+00   8.3856049e+00   7.5119134e+00
   1.1496433e+00   4.8082330e+00   4.8195448e+00   3.0983336e+00   2.2910798e+00   8.3961313e+00   7.5156808e+00
   1.2322927e+00   4.8139095e+00   4.8247353e+00   3.0999570e+00   2.2936395e+00   8.4074167e+00   7.5197058e+00
   1.3208838e+00   4.8200034e+00   4.8302978e+00   3.1017001e+00   2.2963855e+00   8.4195158e+00   7.5240050e+00
   1.4158439e+00   4.8265461e+00   4.8362587e+00   3.1035720e+00   2.2993313e+00   8.4324875e+00   7.5285957e+00
   1.5176308e+00   4.8335713e+00   4.8426464e+00   3.1055823e+00   2.3024920e+00   8.4463948e+00   7.5334964e+00
   1.6267352e+00   4.8411156e+00   4.8494913e+00   3.1077417e+00   2.3058831e+00   8.4613053e+00   7.5387264e+00
   1.7436834e+00   4.8492185e+00   4.8568260e+00   3.1100615e+00   2.3095220e+00   8.4772914e+00   7.5443058e+00
   1.8690391e+00   4.8579223e+00   4.8646852e+00   3.1125541e+00   2.3134268e+00   8.4944310e+00   7.5502558e+00
   2.0034068e+00   4.8672732e+00   4.8731061e+00   3.1152328e+00   2.3176175e+00   8.5128072e+00   7.5565986e+00
   2.1474343e+00   4.8773207e+00   4.8821287e+00   3.1181119e+00   2.3221153e+00   8.5325095e+00   7.5633571e+00
   2.3018162e+00   4.8881186e+00   4.8917953e+00   3.1212073e+00   2.3269431e+00   8.5536337e+00   7.5705551e+00
   2.4672968e+00   4.8997248e+00   4.9021515e+00   3.1245356e+00   2.3321257e+00   8.5762822e+00   7.5782175e+00
   2.6446740e+00   4.9122023e+00   4.9132460e+00   3.1281154e+00   2.3376896e+00   8.6005652e+00   7.5863696e+00
   2.8348031e+00   4.9256191e+00   4.9251305e+00   3.1319665e+00   2.3436637e+00   8.6266004e+00   7.5950375e+00
   3.0386009e+00   4.9400489e+00   4.9378605e+00   3.1361105e+00   2.3500788e+00   8.6545140e+00   7.6042479e+00
   3.2570499e+00   4.9555717e+00   4.9514951e+00   3.1405710e+00   2.3569684e+00   8.6844412e+00   7.6140277e+00
   3.4912035e+00   4.9722743e+00   4.9660974e+00   3.1453735e+00   2.3643686e+00   8.7165267e+00   7.6244041e+00
   3.7421907e+00   4.9902507e+00   4.9817345e+00   3.1505459e+00   2.3723182e+00   8.7509253e+00   7.6354040e+00
   4.0112218e+00   5.0096032e+00   4.9984779e+00   3.1561185e+00   2.3808593e+00   8.7878025e+00   7.6470543e+00
   4.2995938e+00   5.0304430e+00   5.0164038e+00   3.1621245e+00   2.3900373e+00   8.8273355e+00   7.6593807e+00
   4.6086973e+00   5.0528909e+00   5.0355929e+00   3.1686001e+00   2.3999015e+00   8.8697133e+00   7.6724080e+00
   4.9400226e+00   5.0770784e+00   5.0561312e+00   3.1755847e+00   2.4105048e+00   8.9151378e+00   7.6861592e+00
   5.2951673e+00   5.1031487e+00   5.0781096e+00   3.1831219e+00   2.4219049e+00   8.9638244e+00   7.7006550e+00
   5.6758439e+00   5.1312580e+00   5.1016244e+00   3.1912590e+00   2.4341639e+00   9.0160024e+00   7.7159130e+00
   6.0838878e+00   5.1615764e+00   5.1267774e+00   3.2000481e+00   2.4473492e+00   9.0719159e+00   7.7319470e+00
   6.5212665e+00   5.1942895e+00   5.1536757e+00   3.2095466e+00   2.4615340e+00   9.1318244e+00   7.7487659e+00
   6.9900890e+00   5.2296001e+00   5.1824321e+00   3.2198175e+00   2.4767974e+00   9.1960032e+00   7.7663727e+00
   7.4926157e+00   5.2677295e+00   5.2131647e+00   3.2309304e+00   2.4932253e+00   9.2647435e+00   7.7847631e+00
   8.0312697e+00   5.3089193e+00   5.2459971e+00   3.2429619e+00   2.5109109e+00   9.3383533e+00   7.8039240e+00
   8.6086483e+00   5.3534341e+00   5.2810575e+00   3.2559969e+00   2.5299554e+00   9.4171569e+00   7.8238320e+00
   9.2275354e+00   5.4015627e+00   5.3184789e+00   3.2701294e+00   2.5504687e+00   9.5014951e+00   7.8444517e+00
   9.8909151e+00   5.4536211e+00   5.3583979e+00   3.2854635e+00   2.5725701e+00   9.5917243e+00   7.8657331e+00
   1.0601986e+01   5.5099547e+00   5.4009539e+00   3.3021150e+00   2.5963894e+00   9.6882160e+00   7.8876099e+00
   1.1364177e+01   5.5709410e+00   5.4462882e+00   3.3202128e+00   2.6220675e+00   9.7913554e+00   7.9099969e+00
   1.2181162e+01   5.6369926e+00   5.4945415e+00   3.3399005e+00   2.6497577e+00   9.9015395e+00   7.9327873e+00
   1.3056882e+01   5.7085598e+00   5.5458528e+00   3.3613387e+00   2.6796265e+00   1.0019174e+01   7.9558499e+00
   1.3995559e+01   5.7861338e+00   5.6003559e+00   3.3847067e+00   2.7118549e+00   1.0144672e+01   7.9790267e+00
   1.5001718e+01   5.8702494e+00   5.6581765e+00   3.4102058e+00   2.7466395e+00   1.0278445e+01   8.0021298e+00
   1.6080211e+01   5.9614879e+00   5.7194279e+00   3.4380620e+00   2.7841936e+00   1.0420904e+01   8.0249387e+00
   1.7236239e+01   6.0604794e+00   5.7842058e+00   3.4685292e+00   2.8247488e+00   1.0572447e+01   8.0471984e+00
   1.8475375e+01   6.1679047e+00   5.8525828e+00   3.5018936e+00   2.8685558e+00   1.0733457e+01   8.0686171e+00
   1.9803594e+01   6.2844965e+00   5.9246004e+00   3.5384781e+00   2.9158857e+00   1.0904286e+01   8.0888655e+00
   2.1227300e+01   6.4110392e+00   6.0002610e+00   3.5786475e+00   2.9670309e+00   1.1085251e+01   8.1075764e+00
   2.2753359e+01   6.5483672e+00   6.0795178e+00   3.6228143e+00   3.0223058e+00   1.1276621e+01   8.1243462e+00
   2.4389128e+01   6.6973611e+00   6.1622641e+00   3.6714460e+00   3.0820476e+00   1.1478599e+01   8.1387375e+00
   2.6142495e+01   6.8589409e+00   6.2483201e+00   3.7250719e+00   3.1466153e+00   1.1691315e+01   8.1502843e+00
   2.8021913e+01   7.0340558e+00   6.3374205e+00   3.7842925e+00   3.2163893e+00   1.1914812e+01   8.1584989e+00
   3.0036445e+01   7.2236695e+00   6.4291997e+00   3.8497887e+00   3.2917691e+00   1.2149028e+01   8.1628815e+00
   3.2195805e+01   7.4287409e+00   6.5231786e+00   3.9223319e+00   3.3731697e+00   1.2393786e+01   8.1629324e+00
   3.4510404e+01   7.6501976e+00   6.6187517e+00   4.0027959e+00   3.4610160e+00   1.2648786e+01   8.1581668e+00
   3.6991402e+01   7.8889046e+00   6.7151774e+00   4.0921677e+00   3.5557347e+00   1.2913598e+01   8.1481307e+00
   3.9650763e+01   8.1456252e+00   6.8115717e+00   4.1915597e+00   3.6577430e+00   1.3187658e+01   8.1324191e+00
   4.2501309e+01   8.4209763e+00   6.9069095e+00   4.3022202e+00   3.7674326e+00   1.3470275e+01   8.1106936e+00
   4.5556784e+01   8.7153794e+00   7.0000332e+00   4.4255424e+00   3.8851500e+00   1.3760637e+01   8.0826990e+00
   4.8831921e+01   9.0290086e+00   7.0896726e+00   4.5630696e+00   4.0111694e+00   1.4057834e+01   8.0482774e+00
   5.2342512e+01   9.3617408e+00   7.1744773e+00   4.7164948e+00   4.1456605e+00   1.4360878e+01   8.0073770e+00
   5.6105484e+01   9.7131133e+00   7.2530616e+00   4.8876512e+00   4.2886485e+00   1.4668735e+01   7.9600552e+00
   6.0138982e+01   1.0082293e+01   7.3240608e+00   5.0784904e+00   4.4399681e+00   1.4980356e+01   7.9064752e+00
   6.4462452e+01   1.0468066e+01   7.3861974e+00   5.2910442e+00   4.5992125e+00   1.5294721e+01   7.8468939e+00
   6.9096743e+01   1.0868852e+01   7.4383491e+00   5.5273651e+00   4.7656804e+00   1.5610864e+01   7.7816437e+00
   7.4064199e+01   1.1282747e+01   7.4796130e+00   5.7894422e+00   4.9383270e+00   1.5927914e+01   7.7111089e+00
   7.9388772e+01   1.1707599e+01   7.5093571e+00   6.0790903e+00   5.1157257e+00   1.6245111e+01   7.6356980e+00
   8.5096136e+01   1.2141101e+01   7.5272501e+00   6.3978148e+00   5.2960522e+00   1.6561828e+01   7.5558168e+00
   9.1213809e+01   1.2580909e+01   7.5332633e+00   6.7466573e+00   5.4771000e+00   1.6877571e+01   7.4718436e+00
   9.7771290e+01   1.3024757e+01   7.5276445e+00   7.1260394e+00   5.6563399e+00   1.7191974e+01   7.3841104e+00
   1.0480020e+02   1.3470570e+01   7.5108641e+00   7.5356238e+00   5.8310272e+00   1.7504786e+01   7.2928904e+00
   1.1233442e+02   1.3916544e+01   7.4835444e+00   7.9742218e+00   5.9983557e+00   1.7815849e+01   7.1983951e+00
   1.2041029e+02   1.4361199e+01   7.4463810e+00   8.4397745e+00   6.1556427e+00   1.8125071e+01   7.1007772e+00
   1.2906675e+02   1.4803390e+01   7.4000702e+00   8.9294287e+00   6.3005195e+00   1.8432401e+01   7.0001409e+00
   1.3834553e+02   1.5242291e+01   7.3452521e+00   9.4397119e+00   6.4310927e+00   1.8737807e+01   6.8965556e+00
   1.4829137e+02   1.5677339e+01   7.2824761e+00   9.9667878e+00   6.5460433e+00   1.9041251e+01   6.7900707e+00
   1.5895223e+02   1.6108174e+01   7.2121893e+00   1.0506754e+01   6.6446423e+00   1.9342683e+01   6.6807302e+00
   1.7037951e+02   1.6534563e+01   7.1347456e+00   1.1055928e+01   6.7266807e+00   1.9642023e+01   6.5685842e+00
